,X (cm),Y (cm),Unweighted Error,a-SiH Tickness,Amp,Br,Eo,Eg,Ep
0,2.7,12.3,0.004068024,106.2711,90.803665,2.4400048,3.6791668,1.6689074,1.2642953
1,3.9,12.3,0.004367157,105.89475,90.721085,2.4379482,3.6787286,1.6666919,1.2658985
2,5.1,12.3,0.004469338,106.61721,90.46685,2.4398127,3.6794178,1.6685634,1.2621175
3,6.3,12.3,0.005005719,106.425125,90.362915,2.4429533,3.6798234,1.6730562,1.2494714
4,7.5,12.3,0.004370833,106.30216,91.08417,2.4345539,3.675147,1.6647302,1.2796584
5,8.7,12.3,0.004893307,106.27967,90.61792,2.4422255,3.6777039,1.6700368,1.2583205
6,9.9,12.3,0.004986892,105.954605,90.599556,2.4423141,3.6780696,1.6684861,1.2592081
7,11.1,12.3,0.004960479,105.338005,90.79456,2.4380984,3.6775815,1.6617035,1.2732028
8,12.3,12.3,0.005106219,104.98119,90.75395,2.4419184,3.677793,1.6675408,1.259391
9,12.3,11.1,0.004528879,105.91213,90.99762,2.438197,3.6748698,1.667474,1.2655499
10,11.1,11.1,0.005067191,106.425934,90.45664,2.4462066,3.6774821,1.6766816,1.2413647
11,9.9,11.1,0.005330308,106.1533,90.67702,2.446795,3.6760714,1.6768159,1.2437074
12,8.7,11.1,0.005324241,106.371826,90.48767,2.447298,3.677636,1.6741077,1.2460457
13,7.5,11.1,0.005168991,106.45433,90.3641,2.4501028,3.6779141,1.6799378,1.2322783
14,6.3,11.1,0.005259671,106.13146,90.374,2.4469159,3.6789777,1.6752486,1.2412773
15,5.1,11.1,0.005048159,105.85861,90.54066,2.446892,3.6780686,1.6731163,1.2470853
16,3.9,11.1,0.00366793,105.818726,91.25001,2.4383678,3.6735313,1.6565325,1.2909331
17,2.7,11.1,0.004245919,105.99482,91.05686,2.4445596,3.67385,1.665355,1.268803
18,2.7,9.9,0.004398238,106.66441,90.756355,2.4470327,3.6755314,1.6718569,1.2533419
19,3.9,9.9,0.004273371,106.691025,91.4188,2.4453633,3.671422,1.6695582,1.2695875
20,5.1,9.9,0.005230474,106.73119,90.542015,2.451681,3.6762426,1.6785446,1.2376328
21,6.3,9.9,0.004943746,106.61835,91.12992,2.445841,3.673074,1.6716814,1.2618923
22,7.5,9.9,0.005498182,106.25921,90.58717,2.4518032,3.6764836,1.6787755,1.2363541
23,8.7,9.9,0.003913365,106.78716,91.33099,2.4456897,3.6717992,1.669467,1.2668736
24,9.9,9.9,0.005016259,105.962456,90.53779,2.4490194,3.6771975,1.6731136,1.243801
25,11.1,9.9,0.003795688,105.63397,91.456375,2.440017,3.6713364,1.6583396,1.2876328
26,12.3,9.9,0.004327834,105.25785,91.295044,2.443213,3.6727347,1.6627884,1.2734725
27,12.3,8.7,0.004515924,105.98497,90.940796,2.4467182,3.6744986,1.6703268,1.2540816
28,11.1,8.7,0.004212536,106.60939,90.856606,2.4497914,3.6745093,1.6772999,1.2424713
29,9.9,8.7,0.004920533,106.453995,90.7408,2.453581,3.6748965,1.6811892,1.2318251
30,8.7,8.7,0.004785064,106.48913,91.12791,2.452014,3.6725998,1.6774503,1.24469
31,7.5,8.7,0.004547331,106.53461,91.45839,2.448127,3.6704917,1.6724305,1.2603195
32,6.3,8.7,0.004695707,106.668686,90.98222,2.4484177,3.6727438,1.6723447,1.2528936
33,5.1,8.7,0.004147014,106.50154,91.4972,2.441957,3.6689627,1.6624279,1.2822629
34,3.9,8.7,0.004274917,105.994095,91.250916,2.445051,3.670671,1.6620427,1.2738291
35,2.7,8.7,0.002098642,106.21477,92.588524,2.4310005,3.6569865,1.6286929,1.353598
36,2.7,7.5,0.002973417,106.5637,91.654816,2.4427204,3.6659834,1.6574321,1.288164
37,3.9,7.5,0.003862335,106.75755,91.28374,2.4474409,3.6696572,1.667869,1.262739
38,5.1,7.5,0.004672603,106.72703,90.934006,2.4477754,3.6722574,1.6724567,1.2527502
39,6.3,7.5,0.00522715,106.56259,90.75042,2.4480627,3.673714,1.674399,1.2467884
40,7.5,7.5,0.004405094,106.82851,91.15986,2.447822,3.6716666,1.6710659,1.2585684
41,8.7,7.5,0.004370091,106.48423,91.04398,2.4480333,3.670996,1.6702852,1.2548999
42,9.9,7.5,0.004575268,106.617775,90.506714,2.4508047,3.6752644,1.6775882,1.2350407
43,11.1,7.5,0.004259925,105.86216,91.27223,2.4465506,3.6714725,1.6689547,1.2610604
44,12.3,7.5,0.003756096,105.27602,91.75086,2.441761,3.668703,1.657886,1.288381
45,12.3,6.3,0.002252306,105.346725,92.494026,2.4365823,3.6619153,1.6396927,1.3295823
46,11.1,6.3,0.003440295,105.141266,92.07215,2.4402535,3.66693,1.6568176,1.2932101
47,9.9,6.3,0.004647779,105.6045,91.39932,2.446282,3.6712992,1.6677794,1.2644048
48,8.7,6.3,0.004845327,106.000175,91.16852,2.448323,3.6722503,1.6724793,1.2514877
49,7.5,6.3,0.004537092,106.46867,91.0047,2.451547,3.6727958,1.6760334,1.2425485
50,6.3,6.3,0.005008204,106.47005,91.05524,2.4507632,3.6716342,1.6750324,1.2471074
51,5.1,6.3,0.004328079,106.94386,91.13749,2.445567,3.670826,1.6695685,1.259525
52,3.9,6.3,0.004633694,106.6783,91.05885,2.449198,3.6706066,1.67085,1.2531055
53,2.7,6.3,0.003641039,106.822395,91.617325,2.446995,3.666085,1.663764,1.2735584
54,2.7,5.1,0.002182141,106.5844,92.42375,2.4367278,3.6588078,1.6394646,1.3296722
55,3.9,5.1,0.002119038,106.51166,92.402695,2.4307384,3.657327,1.6318924,1.3430862
56,5.1,5.1,0.003505736,107.02124,91.57733,2.4456055,3.664855,1.6595513,1.2785658
57,6.3,5.1,0.004494271,106.99579,91.24078,2.4478636,3.6682281,1.6661762,1.2617718
58,7.5,5.1,0.003995085,106.99228,91.701454,2.4466267,3.6669312,1.6654258,1.2722875
59,8.7,5.1,0.004606173,106.55385,91.557144,2.447314,3.6682036,1.6683745,1.2642024
60,9.9,5.1,0.004600924,106.328415,91.385155,2.4449997,3.6696107,1.6674253,1.2631264
61,11.1,5.1,0.005501406,105.88303,90.73422,2.4515574,3.6738474,1.6763185,1.2354176
62,12.3,5.1,0.004684668,105.59756,91.198044,2.4479043,3.6719644,1.6697229,1.2552615
63,12.3,3.9,0.003954597,104.84628,92.04853,2.4412975,3.6667671,1.6577315,1.290906
64,11.1,3.9,0.003516001,105.077576,92.07687,2.4427052,3.6665995,1.6587615,1.2863895
65,9.9,3.9,0.004282599,105.48562,92.18635,2.439992,3.6655433,1.657382,1.2936339
66,8.7,3.9,0.004723913,106.071556,91.51764,2.4462767,3.6681333,1.6666988,1.2653674
67,7.5,3.9,0.005051066,106.20398,91.56181,2.4480877,3.6679876,1.6692873,1.2612897
68,6.3,3.9,0.004858718,106.92062,91.067696,2.4516194,3.6703496,1.6751285,1.2416402
69,5.1,3.9,0.005028349,106.88086,91.80564,2.4473324,3.665691,1.6667422,1.2679309
70,3.9,3.9,0.00460006,107.120316,91.38397,2.4495778,3.6665397,1.665861,1.2629416
71,2.7,3.9,0.003278888,107.66882,91.52596,2.4464755,3.6640005,1.6601826,1.2746497
72,2.7,2.7,0.002150116,106.7405,92.857216,2.4348056,3.6535673,1.6322318,1.3463945
73,3.9,2.7,0.003500194,108.066635,92.06286,2.4452589,3.6620522,1.6551313,1.2895367
74,5.1,2.7,0.003955443,107.96005,91.93543,2.4447253,3.6635656,1.6568036,1.285152
75,6.3,2.7,0.004000986,107.913574,91.48207,2.4480853,3.6651967,1.6636066,1.2689434
76,7.5,2.7,0.004021997,107.658844,91.676704,2.44555,3.664692,1.6598738,1.279333
77,8.7,2.7,0.003902883,107.08589,91.977905,2.4417226,3.6640642,1.657802,1.2863597
78,9.9,2.7,0.003804216,106.51879,91.993965,2.4442184,3.6642683,1.656141,1.2899579
79,11.1,2.7,0.003231539,106.12623,92.04183,2.4458313,3.6648622,1.6585749,1.2832643
80,12.3,2.7,0.003375562,108.18582,91.94312,2.448398,3.6622462,1.6568383,1.2812682
